% Ag2O (silver(I) oxide) n,k — n: Wemple-DiDomenico fit, Gao et al., Vacuum 85, 1480 (2010)
% k: Tauc direct-gap onset (Eg=2.32 eV), scaled k(3.0eV)~0.5, capped 0.9 (model, qualitative)
%  Energy (eV)	n	k
1.23984	2.37916	0.00000
1.24233	2.37946	0.00000
1.24482	2.37976	0.00000
1.24733	2.38006	0.00000
1.24984	2.38036	0.00000
1.25237	2.38067	0.00000
1.25490	2.38097	0.00000
1.25745	2.38128	0.00000
1.26000	2.38159	0.00000
1.26257	2.38191	0.00000
1.26514	2.38222	0.00000
1.26773	2.38254	0.00000
1.27033	2.38286	0.00000
1.27294	2.38318	0.00000
1.27556	2.38350	0.00000
1.27819	2.38383	0.00000
1.28083	2.38415	0.00000
1.28348	2.38448	0.00000
1.28614	2.38481	0.00000
1.28882	2.38515	0.00000
1.29150	2.38549	0.00000
1.29420	2.38582	0.00000
1.29691	2.38617	0.00000
1.29962	2.38651	0.00000
1.30236	2.38685	0.00000
1.30510	2.38720	0.00000
1.30785	2.38755	0.00000
1.31062	2.38791	0.00000
1.31339	2.38826	0.00000
1.31618	2.38862	0.00000
1.31898	2.38898	0.00000
1.32179	2.38934	0.00000
1.32462	2.38971	0.00000
1.32745	2.39008	0.00000
1.33030	2.39045	0.00000
1.33316	2.39082	0.00000
1.33604	2.39120	0.00000
1.33892	2.39158	0.00000
1.34182	2.39196	0.00000
1.34473	2.39234	0.00000
1.34765	2.39273	0.00000
1.35059	2.39312	0.00000
1.35354	2.39351	0.00000
1.35650	2.39391	0.00000
1.35948	2.39430	0.00000
1.36246	2.39470	0.00000
1.36546	2.39511	0.00000
1.36848	2.39551	0.00000
1.37151	2.39592	0.00000
1.37455	2.39634	0.00000
1.37760	2.39675	0.00000
1.38067	2.39717	0.00000
1.38375	2.39759	0.00000
1.38685	2.39802	0.00000
1.38996	2.39845	0.00000
1.39308	2.39888	0.00000
1.39622	2.39931	0.00000
1.39937	2.39975	0.00000
1.40254	2.40019	0.00000
1.40572	2.40064	0.00000
1.40891	2.40108	0.00000
1.41212	2.40154	0.00000
1.41534	2.40199	0.00000
1.41858	2.40245	0.00000
1.42184	2.40291	0.00000
1.42511	2.40338	0.00000
1.42839	2.40384	0.00000
1.43169	2.40432	0.00000
1.43500	2.40479	0.00000
1.43833	2.40527	0.00000
1.44168	2.40576	0.00000
1.44504	2.40624	0.00000
1.44841	2.40673	0.00000
1.45181	2.40723	0.00000
1.45521	2.40773	0.00000
1.45864	2.40823	0.00000
1.46208	2.40874	0.00000
1.46553	2.40925	0.00000
1.46901	2.40976	0.00000
1.47250	2.41028	0.00000
1.47600	2.41080	0.00000
1.47953	2.41133	0.00000
1.48306	2.41186	0.00000
1.48662	2.41240	0.00000
1.49019	2.41294	0.00000
1.49379	2.41348	0.00000
1.49739	2.41403	0.00000
1.50102	2.41458	0.00000
1.50466	2.41514	0.00000
1.50832	2.41570	0.00000
1.51200	2.41627	0.00000
1.51570	2.41684	0.00000
1.51941	2.41742	0.00000
1.52315	2.41800	0.00000
1.52690	2.41858	0.00000
1.53067	2.41917	0.00000
1.53446	2.41977	0.00000
1.53827	2.42037	0.00000
1.54209	2.42098	0.00000
1.54594	2.42159	0.00000
1.54980	2.42220	0.00000
1.55369	2.42283	0.00000
1.55759	2.42345	0.00000
1.56151	2.42408	0.00000
1.56546	2.42472	0.00000
1.56942	2.42536	0.00000
1.57340	2.42601	0.00000
1.57741	2.42667	0.00000
1.58143	2.42733	0.00000
1.58548	2.42799	0.00000
1.58954	2.42866	0.00000
1.59363	2.42934	0.00000
1.59773	2.43002	0.00000
1.60186	2.43071	0.00000
1.60601	2.43141	0.00000
1.61018	2.43211	0.00000
1.61438	2.43282	0.00000
1.61859	2.43353	0.00000
1.62283	2.43425	0.00000
1.62709	2.43498	0.00000
1.63137	2.43572	0.00000
1.63568	2.43646	0.00000
1.64000	2.43720	0.00000
1.64435	2.43796	0.00000
1.64873	2.43872	0.00000
1.65312	2.43949	0.00000
1.65754	2.44026	0.00000
1.66199	2.44104	0.00000
1.66645	2.44183	0.00000
1.67095	2.44263	0.00000
1.67546	2.44343	0.00000
1.68000	2.44425	0.00000
1.68457	2.44507	0.00000
1.68916	2.44589	0.00000
1.69377	2.44673	0.00000
1.69841	2.44757	0.00000
1.70308	2.44842	0.00000
1.70777	2.44928	0.00000
1.71249	2.45015	0.00000
1.71723	2.45103	0.00000
1.72200	2.45191	0.00000
1.72680	2.45281	0.00000
1.73162	2.45371	0.00000
1.73647	2.45462	0.00000
1.74135	2.45554	0.00000
1.74626	2.45647	0.00000
1.75119	2.45741	0.00000
1.75615	2.45835	0.00000
1.76114	2.45931	0.00000
1.76616	2.46028	0.00000
1.77120	2.46126	0.00000
1.77628	2.46224	0.00000
1.78138	2.46324	0.00000
1.78652	2.46424	0.00000
1.79168	2.46526	0.00000
1.79687	2.46629	0.00000
1.80210	2.46733	0.00000
1.80735	2.46838	0.00000
1.81263	2.46944	0.00000
1.81795	2.47051	0.00000
1.82330	2.47159	0.00000
1.82868	2.47268	0.00000
1.83409	2.47379	0.00000
1.83953	2.47491	0.00000
1.84500	2.47603	0.00000
1.85051	2.47718	0.00000
1.85605	2.47833	0.00000
1.86162	2.47949	0.00000
1.86723	2.48067	0.00000
1.87287	2.48186	0.00000
1.87855	2.48307	0.00000
1.88426	2.48429	0.00000
1.89000	2.48552	0.00000
1.89578	2.48676	0.00000
1.90160	2.48802	0.00000
1.90745	2.48929	0.00000
1.91334	2.49058	0.00000
1.91926	2.49188	0.00000
1.92522	2.49320	0.00000
1.93122	2.49453	0.00000
1.93725	2.49587	0.00000
1.94333	2.49723	0.00000
1.94944	2.49861	0.00000
1.95559	2.50001	0.00000
1.96178	2.50141	0.00000
1.96800	2.50284	0.00000
1.97427	2.50428	0.00000
1.98058	2.50574	0.00000
1.98693	2.50722	0.00000
1.99332	2.50872	0.00000
1.99975	2.51023	0.00000
2.00622	2.51176	0.00000
2.01273	2.51331	0.00000
2.01929	2.51488	0.00000
2.02589	2.51646	0.00000
2.03253	2.51807	0.00000
2.03921	2.51970	0.00000
2.04594	2.52134	0.00000
2.05272	2.52301	0.00000
2.05954	2.52470	0.00000
2.06640	2.52641	0.00000
2.07331	2.52814	0.00000
2.08027	2.52989	0.00000
2.08728	2.53167	0.00000
2.09433	2.53346	0.00000
2.10143	2.53528	0.00000
2.10857	2.53713	0.00000
2.11577	2.53900	0.00000
2.12302	2.54089	0.00000
2.13031	2.54281	0.00000
2.13766	2.54475	0.00000
2.14506	2.54672	0.00000
2.15250	2.54872	0.00000
2.16000	2.55074	0.00000
2.16756	2.55279	0.00000
2.17516	2.55487	0.00000
2.18282	2.55697	0.00000
2.19053	2.55911	0.00000
2.19830	2.56127	0.00000
2.20612	2.56347	0.00000
2.21400	2.56569	0.00000
2.22194	2.56795	0.00000
2.22993	2.57024	0.00000
2.23798	2.57256	0.00000
2.24609	2.57491	0.00000
2.25426	2.57730	0.00000
2.26249	2.57972	0.00000
2.27077	2.58218	0.00000
2.27912	2.58467	0.00000
2.28753	2.58720	0.00000
2.29600	2.58977	0.00000
2.30454	2.59238	0.00000
2.31314	2.59502	0.00000
2.32180	2.59771	0.00000
2.33053	2.60044	0.00015
2.33932	2.60320	0.00052
2.34819	2.60601	0.00110
2.35711	2.60887	0.00190
2.36611	2.61177	0.00292
2.37518	2.61471	0.00416
2.38431	2.61770	0.00563
2.39352	2.62074	0.00733
2.40279	2.62383	0.00925
2.41214	2.62696	0.01142
2.42157	2.63015	0.01382
2.43106	2.63339	0.01646
2.44063	2.63668	0.01934
2.45028	2.64003	0.02247
2.46000	2.64343	0.02585
2.46980	2.64689	0.02948
2.47968	2.65041	0.03336
2.48964	2.65399	0.03750
2.49968	2.65763	0.04190
2.50980	2.66134	0.04656
2.52000	2.66511	0.05149
2.53029	2.66894	0.05670
2.54066	2.67284	0.06217
2.55112	2.67681	0.06792
2.56166	2.68086	0.07395
2.57229	2.68497	0.08027
2.58300	2.68916	0.08687
2.59381	2.69343	0.09377
2.60471	2.69778	0.10095
2.61570	2.70221	0.10844
2.62678	2.70672	0.11623
2.63796	2.71132	0.12433
2.64924	2.71601	0.13273
2.66061	2.72078	0.14145
2.67207	2.72565	0.15049
2.68364	2.73062	0.15985
2.69531	2.73568	0.16953
2.70708	2.74085	0.17955
2.71895	2.74612	0.18990
2.73093	2.75150	0.20059
2.74301	2.75698	0.21162
2.75520	2.76258	0.22300
2.76750	2.76830	0.23474
2.77991	2.77414	0.24683
2.79244	2.78011	0.25929
2.80507	2.78620	0.27211
2.81782	2.79242	0.28531
2.83069	2.79879	0.29888
2.84367	2.80529	0.31284
2.85678	2.81194	0.32719
2.87000	2.81874	0.34193
2.88335	2.82569	0.35706
2.89683	2.83280	0.37261
2.91043	2.84009	0.38856
2.92416	2.84754	0.40493
2.93801	2.85517	0.42172
2.95200	2.86299	0.43894
2.96613	2.87099	0.45659
2.98039	2.87920	0.47469
2.99479	2.88760	0.49323
3.00933	2.89622	0.51222
3.02400	2.90507	0.53168
3.03883	2.91414	0.55160
3.05380	2.92344	0.57200
3.06892	2.93300	0.59287
3.08418	2.94281	0.61424
3.09960	2.95288	0.63610
3.11518	2.96324	0.65846
3.13091	2.97388	0.68133
3.14681	2.98483	0.70472
3.16286	2.99609	0.72864
3.17908	3.00767	0.75309
3.19547	3.01960	0.77809
3.21203	3.03188	0.80363
3.22876	3.04454	0.82974
3.24566	3.05759	0.85641
3.26274	3.07104	0.88366
3.28001	3.08492	0.90000
3.29745	3.09925	0.90000
3.31509	3.11405	0.90000
3.33291	3.12934	0.90000
3.35092	3.14515	0.90000
3.36914	3.16151	0.90000
3.38755	3.17843	0.90000
3.40616	3.19596	0.90000
3.42498	3.21413	0.90000
3.44401	3.23297	0.90000
3.46325	3.25251	0.90000
3.48270	3.27281	0.90000
3.50238	3.29391	0.90000
3.52228	3.31584	0.90000
3.54241	3.33868	0.90000
3.56276	3.36246	0.90000
3.58336	3.38726	0.90000
3.60419	3.41313	0.90000
3.62527	3.44017	0.90000
3.64659	3.46843	0.90000
3.66817	3.49801	0.90000
3.69001	3.52902	0.90000
3.71210	3.56154	0.90000
3.73446	3.59571	0.90000
3.75710	3.63165	0.90000
3.78001	3.66951	0.90000
3.80320	3.70945	0.90000
3.82667	3.75165	0.90000
3.85044	3.79632	0.90000
3.87451	3.84368	0.90000
3.89887	3.89400	0.90000
3.92355	3.94757	0.90000
3.94854	4.00473	0.90000
3.97385	4.06587	0.90000
3.99949	4.13145	0.90000
4.02546	4.20198	0.90000
4.05177	4.27807	0.90000
4.07843	4.36045	0.90000
4.10544	4.44999	0.90000
4.13281	4.54769	0.90000
